% WAVENUMBER 59.83500 59.83500
data=[385.76230 0.00000 122.36090 
401.19279 3.90622 91.95509 
416.62328 9.71323 92.20965 
432.05377 4.55453 163.12613 
447.48427 0.00000 179.50740 
462.91476 3.75952 179.84700 
478.34525 7.19915 176.89621 
493.77574 9.02677 177.51328 
509.20623 11.22307 173.45470 
524.63672 11.87203 172.81342 
540.06722 11.65249 174.15086 
555.49771 12.92343 167.84186 
570.92820 14.39008 162.44577 
586.35869 15.32881 163.43703 
601.78918 15.70876 165.06255 
617.21967 15.54624 165.67220 
632.65016 15.55088 165.78529 
648.08066 15.94784 167.21106 
663.51115 16.37610 169.14761 
678.94164 16.39009 169.31473 
694.37213 16.06764 168.34206 
709.80262 16.00829 166.90587 
725.23311 16.10108 165.07680 
740.66361 16.19129 163.87582 
756.09410 16.21198 164.74094 
771.52459 15.50521 165.88608 
786.95508 15.84967 165.11391 
802.38557 18.43030 163.87582 
817.81606 19.42118 163.78897 
833.24656 19.23890 163.80991 
848.67705 20.19501 163.17622 
864.10754 20.64219 162.53174 
879.53803 19.85919 163.81522 
894.96852 18.90784 166.24362 
910.39901 18.19113 166.73439 
925.82951 17.81204 165.73056 
941.26000 17.66201 164.91231 
956.69049 17.39829 163.74866 
972.12098 16.91555 162.24814 
987.55147 16.17371 160.82190 
1002.98196 15.61053 159.75421 
1018.41246 16.12144 159.40103 
1033.84295 17.19864 159.66652 
1049.27344 18.68009 160.26886 
1064.70393 21.73550 160.08571 
1080.13442 26.30267 159.40820 
1095.56491 29.95651 157.16248 
1110.99541 30.28535 153.02425 
1126.42590 27.25632 150.26295 
1141.85639 23.00547 152.30630 
1157.28688 20.56811 156.87949 
1172.71737 20.10232 159.05878 
1188.14786 19.91847 159.94606 
1203.57836 19.75037 160.94395 
1219.00885 19.55856 161.83607 
1234.43934 19.75137 161.74007 
1249.86983 20.63389 158.93248 
1265.30032 20.50619 157.51854 
1280.73081 19.44741 160.21638 
1296.16131 19.24709 162.68541 
1311.59180 19.75929 162.75743 
1327.02229 19.85147 162.52757 
1342.45278 19.85328 162.35982 
1357.88327 20.26563 162.37381 
1373.31376 20.34462 162.02118 
1388.74426 19.86520 161.08971 
1404.17475 19.84023 160.68777 
1419.60524 20.03733 160.60373 
1435.03573 20.15584 160.69432 
1450.46622 20.31684 160.69937 
1465.89671 19.95492 159.81084 
1481.32721 20.52238 159.66728 
1496.75770 22.11793 160.35870 
1512.18819 22.00538 159.88745 
1527.61868 20.30393 159.08014 
1543.04917 19.90933 158.71834 
1558.47966 19.93460 157.85631 
1573.91016 20.15694 158.27271 
1589.34065 20.39254 159.12340 
1604.77114 20.26857 159.02553 
1620.20163 19.98416 158.10817 
1635.63212 19.85174 157.13203 
1651.06261 20.13403 157.16072 
1666.49310 20.67418 158.03656 
1681.92360 20.97479 158.62050 
1697.35409 20.92610 158.30377 
1712.78458 21.14906 156.08302 
1728.21507 21.32954 153.99956 
1743.64556 20.99372 154.73022 
1759.07605 20.86293 156.39925 
1774.50655 20.79312 156.34772 
1789.93704 20.49418 155.50093 
1805.36753 20.34792 154.31253 
1820.79802 20.34250 154.24673 
1836.22851 20.59494 155.14487 
1851.65900 20.88916 154.34921 
1867.08950 20.86804 153.24915 
1882.51999 20.69884 153.27425 
1897.95048 20.46206 153.19763 
1913.38097 20.41497 153.79665 
1928.81146 20.76538 154.71329 
1944.24195 21.02058 153.52481 
1959.67245 20.90847 151.75996 
1975.10294 20.73090 151.22411 
1990.53343 20.58844 151.13226 
2005.96392 20.50957 151.76985 
2021.39441 20.65262 153.87096 
2036.82490 20.91569 155.01846 
2052.25540 20.97627 153.14488 
2067.68589 20.82330 150.70201 
2083.11638 20.75153 149.01482 
2098.54687 20.77409 147.69415 
2113.97736 20.74177 148.40102 
2129.40785 20.70371 151.43633 
2144.83835 20.67596 153.62563 
2160.26884 20.61642 152.80806 
2175.69933 20.62940 151.20093 
2191.12982 20.86500 149.49745 
2206.56031 21.14946 146.95450 
2221.99080 21.15606 146.17801 
2237.42130 20.95148 147.97639 
2252.85179 20.73274 149.78772 
2268.28228 20.58680 150.29651 
2283.71277 20.66453 150.18840 
2299.14326 20.74226 150.08028 
2314.57375 20.81999 149.97217 
2330.00425 20.89771 149.86404 
2345.43474 20.97544 149.75594 
2360.86523 21.05317 149.64781 
2376.29572 21.13090 149.53970 
2391.72621 21.20863 149.43158 
2407.15670 21.28636 149.32347 
2422.58720 21.36409 149.21536 
2438.01769 21.44182 149.10724 
2453.44818 21.15191 146.97090 
2468.87867 21.16811 145.46758 
2484.30916 21.30197 144.42900 
2499.73965 21.36465 144.56520 
2515.17015 21.24357 146.51038 
2530.60064 21.01027 148.57449 
2546.03113 20.81889 148.73128 
2561.46162 20.86846 148.02669 
2576.89211 21.19384 147.72575 
2592.32260 21.49300 146.33397 
2607.75310 21.49557 143.98499 
2623.18359 21.25128 143.13065 
2638.61408 20.96876 143.89114 
2654.04457 20.84875 144.60881 
2669.47506 20.94510 145.39932 
2684.90555 21.19252 147.13237 
2700.33604 21.39189 147.88855 
2715.76654 21.37006 145.87772 
2731.19703 21.27318 143.21371 
2746.62752 21.25150 141.94101 
2762.05801 21.31441 141.71896 
2777.48850 21.49268 142.15326 
2792.91899 21.63548 143.51979 
2808.34949 21.56011 144.82938 
2823.77998 21.42833 144.58678 
2839.21047 21.51464 143.62915 
2854.64096 21.78287 143.13731 
2870.07145 21.99508 142.51225 
2885.50194 22.12514 141.87125 
2900.93244 22.19136 141.80516 
2916.36293 22.12365 141.92728 
2931.79342 22.07052 141.66774 
2947.22391 22.16830 141.24292 
2962.65440 22.32159 141.37376 
2978.08489 22.41755 141.76227 
2993.51539 22.39918 141.62317 
3008.94588 22.40681 141.26791 
3024.37637 22.50618 141.21675 
3039.80686 22.53701 141.31100 
3055.23735 22.49417 141.24452 
3070.66784 22.50563 140.99490 
3086.09834 22.62389 140.89148 
3101.52883 22.74552 141.26137 
3116.95932 22.70154 141.72522 
3132.38981 22.52540 141.46788 
3147.82030 22.38115 140.47647 
3163.25079 22.36082 139.37099 
3178.68129 22.39211 138.68546 
3194.11178 22.39151 138.71523 
3209.54227 22.41268 139.37657 
3224.97276 22.40966 140.25255 
3240.40325 22.35748 140.54213 
3255.83374 22.46119 139.97997 
3271.26424 22.71488 139.30040 
3286.69473 22.84786 138.77769 
3302.12522 22.83983 138.30280 
3317.55571 22.82303 138.17043 
3332.98620 22.79361 138.35664 
3348.41669 22.73905 138.47957 
3363.84719 22.78154 138.59305 
3379.27768 23.03668 138.87048 
3394.70817 23.32611 138.93431 
3410.13866 23.41841 138.51894 
3425.56915 23.43343 137.76733 
3440.99964 23.50372 136.85121 
3456.43014 23.56749 136.09944 
3471.86063 23.63350 135.97089 
3487.29112 23.72449 136.46172 
3502.72161 23.79199 136.81657 
3518.15210 23.80935 136.82744 
3533.58259 23.79373 136.71992 
3549.01309 23.84118 136.22990 
3564.44358 23.97961 135.52075 
3579.87407 24.04261 134.87914 
3595.30456 24.00735 134.51582 
3610.73505 24.02381 134.82965 
3626.16554 24.10288 135.11639 
3641.59604 24.14148 134.86980 
3657.02653 24.12154 134.79099 
3672.45702 24.10415 134.89323 
3687.88751 24.15078 134.97861 
3703.31800 24.20663 134.79703 
3718.74849 24.13425 134.41496 
3734.17898 23.97511 134.16788 
3749.60948 23.96951 133.67859 
3765.03997 23.91916 133.66461 
3780.47046 23.81778 134.29265 
3795.90095 23.89824 134.71996 
3811.33144 24.08925 134.62544 
3826.76193 24.22293 134.21953 
3842.19243 24.36298 133.55791 
3857.62292 24.43367 132.58220 
3873.05341 24.30928 131.91322 
3888.48390 24.08135 132.14001 
3903.91439 23.98974 132.59442 
3919.34488 24.04923 132.76022 
3934.77538 24.10828 133.01613 
3950.20587 24.24359 133.22368 
3965.63636 24.45506 132.85655 
3981.06685 24.55645 131.94299 
3996.49734 24.52779 131.14706 
4011.92783 24.51325 130.82109 
4027.35833 24.50523 130.78854 
4042.78882 24.44507 130.92561 
4058.21931 24.42888 131.10399 
4073.64980 24.54184 131.16512 
4089.08029 24.73261 130.98621 
4104.51078 24.87479 130.57191 
4119.94128 24.95622 130.13306 
4135.37177 25.04931 129.82864 
4150.80226 25.10589 129.48405 
4166.23275 25.05048 129.14586 
4181.66324 24.94612 129.19440 
4197.09373 24.92543 129.27264 
4212.52423 25.02223 128.96002 
4227.95472 25.18176 128.71393 
4243.38521 25.34702 128.80687 
4258.81570 25.44847 128.82649 
4274.24619 25.46710 128.27905 
4289.67668 25.44725 127.61890 
4305.10718 25.38435 127.54089 
4320.53767 25.32409 127.60774 
4335.96816 25.40897 127.26874 
4351.39865 25.59391 126.73862 
4366.82914 25.69374 126.60181 
4382.25963 25.72937 126.78410 
4397.69013 25.79193 126.43423 
4413.12062 25.84268 125.91670 
4428.55111 25.83950 126.00547 
4443.98160 25.81114 126.12080 
4459.41209 25.79031 125.86263 
4474.84258 25.80339 125.57635 
4490.27308 25.85116 125.54837 
4505.70357 25.91582 125.57428 
4521.13406 26.07326 125.14449 
4536.56455 26.26781 124.76586 
4551.99504 26.33028 124.81567 
4567.42553 26.35589 124.61153 
4582.85603 26.38286 124.21947 
4598.28652 26.26139 124.01731 
4613.71701 26.12868 123.85853 
4629.14750 26.19858 123.61308 
4644.57799 26.35605 123.25054 
4660.00848 26.50883 123.11470 
4675.43898 26.67374 122.97517 
4690.86947 26.73754 122.34479 
4706.29996 26.71831 121.95261 
4721.73045 26.67557 122.04154 
4737.16094 26.59114 122.04539 
4752.59143 26.58734 121.95712 
4768.02192 26.64719 121.83932 
4783.45242 26.70391 121.65561 
4798.88291 26.87925 121.26085 
4814.31340 27.07766 120.63631 
4829.74389 27.13758 120.31234 
4845.17438 27.16706 120.38937 
4860.60487 27.18045 120.25787 
4876.03537 27.12442 119.86143 
4891.46586 27.11875 119.46237 
4906.89635 27.16991 118.65096 
4922.32684 27.20251 117.71502 
4937.75733 27.27102 117.48991 
4953.18782 27.39844 117.60265 
4968.61832 27.50464 117.50137 
4984.04881 27.54410 117.22405 
4999.47930 27.54255 116.84908 
5014.90979 27.52458 116.41011 
5030.34028 27.59762 115.91674 
5045.77077 27.76493 115.49376 
5061.20127 27.82855 115.16697 
5076.63176 27.83737 114.83078 
5092.06225 27.92276 114.50122 
5107.49274 27.99020 114.16499 
5122.92323 28.01964 113.74187 
5138.35372 28.08857 113.35401 
5153.78422 28.14689 112.84848 
5169.21471 28.15556 111.89664 
5184.64520 28.21225 110.85288 
5200.07569 28.30931 109.95310 
5215.50618 28.35763 109.40359 
5230.93667 28.38649 109.40635 
5246.36717 28.48350 109.48147 
5261.79766 28.64152 109.48578 
5277.22815 28.70406 109.21149 
5292.65864 28.67572 108.47892 
5308.08913 28.66431 107.70017 
5323.51962 28.71250 107.06323 
5338.95012 28.86443 106.65137 
5354.38061 28.98716 106.54475 
5369.81110 29.05564 106.42805 
5385.24159 29.18217 106.14577 
5400.67208 29.22662 105.74399 
5416.10257 29.14762 105.11279 
5431.53307 29.04593 104.09559 
5446.96356 29.02879 103.32027 
5462.39405 29.15215 102.74333 
5477.82454 29.27666 101.80702 
5493.25503 29.34658 101.22241 
5508.68552 29.36744 100.97881 
5524.11602 29.36205 100.37312 
5539.54651 29.40765 99.57588 
5554.97700 29.44344 98.63303 
5570.40749 29.34668 97.31786 
5585.83798 29.16498 95.56409 
5601.26847 29.15621 93.65800 
5616.69897 29.28445 92.30483 
5632.12946 29.35318 91.77975 
5647.55995 29.45748 91.44540 
5662.99044 29.49889 90.59467 
5678.42093 29.43833 89.25464 
5693.85142 29.36726 87.73610 
5709.28192 29.21894 86.20480 
5724.71241 29.17257 84.65823 
5740.14290 29.19837 83.34713 
5755.57339 29.12131 82.54957 
5771.00388 29.06914 81.79723 
5786.43437 29.01358 81.39317 
5801.86486 28.86157 81.66415 
5817.29536 28.62001 81.50150 
5832.72585 28.39856 80.55180 
5848.15634 28.28174 78.95247 
5863.58683 28.16218 77.23926 
5879.01732 27.97718 76.17005 
5894.44781 27.68456 74.84826 
5909.87831 27.21126 73.60504 
5925.30880 26.58175 73.93866 
5940.73929 25.94560 75.03851 
5956.16978 25.34121 75.81555 
5971.60027 24.71172 77.05319 
5987.03076 24.22907 79.70715 
6002.46126 23.99728 83.09579 
6017.89175 23.84532 86.04456 
6033.32224 23.61275 89.23116 
6048.75273 23.56532 93.48705 
6064.18322 23.88894 97.23621 
6079.61371 24.00672 100.22086 
6095.04421 23.86928 103.81788 
6110.47470 24.03496 106.91187 
6125.90519 24.28082 107.71291 
6141.33568 24.35259 106.87990 
6156.76617 24.48530 106.38943 
6172.19666 24.56667 107.27233 
6187.62716 24.57265 108.58565 
6203.05765 24.74649 108.92957 
6218.48814 24.79885 109.37891 
6233.91863 24.67385 110.05647 
6249.34912 24.72563 110.81715 
6264.77961 24.84857 111.74786 
6280.21011 24.98421 110.98303 
6295.64060 25.11980 109.06839 
6311.07109 25.12444 108.49444 
6326.50158 25.20230 109.46037 
6341.93207 25.37182 111.14803 
6357.36256 25.43446 112.44518 
6372.79306 25.53770 113.10814 
6388.22355 25.65179 112.91599 
6403.65404 25.55692 111.65447 
6419.08453 25.64963 110.68895 
6434.51502 25.83008 110.15481 
6449.94551 25.54970 110.35448 
6465.37601 25.45969 111.78898 
6480.80650 25.78449 112.91882 
6496.23699 25.93506 113.07478 
6511.66748 25.95801 113.04865];
